 Al Density=2.699
 Energy(eV), Delta, Beta
  30.  0.107041024  0.00801586732
  30.3095207  0.10440921  0.00794757344
  30.6222324  0.10183806  0.00787987281
  30.9381752  0.0993266776  0.00781275332
  31.2573738  0.0968742147  0.00774620473
  31.5798683  0.0944779739  0.00768020051
  31.9056873  0.0921403393  0.0076147737
  32.2348709  0.0898599252  0.00754992105
  32.5674477  0.0876381472  0.00747929979
  32.9034576  0.0854662955  0.00739861699
  33.2429352  0.0833401978  0.00730078388
  33.5859146  0.0812479854  0.0072042169
  33.9324303  0.0791986585  0.00710892677
  34.2825241  0.0771880895  0.00701491628
  34.6362267  0.0752179697  0.00692214072
  34.9935799  0.0732905269  0.00683058845
  35.3546219  0.0713989288  0.00674025575
  35.7193871  0.0695470497  0.00665111002
  36.0879173  0.0677352473  0.00656313403
  36.460247  0.0659560189  0.00647634035
  36.836422  0.0642154366  0.00639069453
  37.2164764  0.0625108778  0.00630618585
  37.6004486  0.0608381368  0.00622278871
  37.9883881  0.0592018887  0.00614048773
  38.3803253  0.0575978681  0.00605926756
  38.77631  0.0560248978  0.00597912259
  39.1763763  0.0544863604  0.00590004027
  39.580574  0.0529763773  0.00582201174
  39.9889412  0.0514988564  0.0057450179
  40.4015198  0.0500549488  0.00566891348
  40.8183594  0.0486388654  0.00559049891
  41.2394943  0.0472514704  0.00550630596
  41.664978  0.045891434  0.00541589269
  42.0948486  0.0445457138  0.00532695465
  42.5291557  0.0432267785  0.00523947598
  42.9679451  0.0419303589  0.00515343715
  43.4112587  0.0406537578  0.00506881345
  43.8591461  0.0394034684  0.00498557976
  44.311657  0.0381726623  0.00490371231
  44.768837  0.0369632095  0.00482319109
  45.230732  0.0357791036  0.00474399142
  45.6973915  0.0346117876  0.00466607837
  46.168869  0.0334674753  0.00458945287
  46.6452103  0.0323470458  0.00451409305
  47.126461  0.0312608406  0.00443996862
  47.6126823  0.0301981159  0.00434971787
  48.10392  0.0291550867  0.00423656171
  48.6002274  0.0280954372  0.00411110744
  49.1016464  0.0270465165  0.00398661615
  49.6082497  0.0259988159  0.00386589044
  50.1200714  0.0249550752  0.00374883087
  50.6371803  0.0239264518  0.00363531569
  51.1596222  0.0228973869  0.00352523127
  51.6874504  0.0218769573  0.00341847702
  52.2207298  0.0208714977  0.0033149526
  52.75951  0.0198568888  0.00321457069
  53.3038483  0.0188545138  0.00312104565
  53.8538017  0.0178615935  0.00303452951
  54.4094276  0.0168665275  0.00295500015
  54.9707909  0.0158868879  0.00287804869
  55.537941  0.0149134668  0.00280310586
  56.1109467  0.013936243  0.0027301095
  56.6898613  0.012971038  0.00265901466
  57.2747498  0.0119989756  0.00258977781
  57.8656731  0.0110240169  0.00252233609
  58.4626923  0.0100581581  0.00245664874
  59.065876  0.00906461943  0.00239267829
  59.6752777  0.00807050709  0.00233659614
  60.290966  0.00708003389  0.00228740741
  60.9130096  0.00606036  0.00224356959
  61.5414696  0.00504276343  0.00220075483
  62.1764145  0.0040135812  0.00215875823
  62.8179131  0.00292574521  0.00211755815
  63.4660225  0.00182984385  0.00208839122
  64.1208267  0.000694284041  0.00209001824
  64.7823868 -0.000471543259  0.0020940809
  65.4507599 -0.00164447795  0.00209916406
  66.1260452 -0.00290698605  0.0021042556
  66.8082886 -0.00424029445  0.002109366
  67.4975739 -0.00561046461  0.00211441331
  68.1939697 -0.00721568847  0.00211482216
  68.8975449 -0.00896556303  0.00211495627
  69.6083908 -0.0108918138  0.00211476069
  70.326561 -0.0134867495  0.0021145707
  71.0521469 -0.0168302674  0.00211438024
  71.7852173 -0.0215786025  0.00211418956
  72.5258484 -0.0355339237  0.00211399328
  73.2741241 -0.026687691  0.0241583213
  74.0301132 -0.0213581361  0.0245230757
  74.7939148 -0.018181514  0.024893295
  75.5655899 -0.0162595585  0.0252691284
  76.3452225 -0.0150392503  0.0256505944
  77.1328964 -0.0140036307  0.0260378923
  77.9287109 -0.0131365042  0.0264310967
  78.7327271 -0.0124139581  0.026830161
  79.5450363 -0.0117298644  0.0272352491
  80.3657379 -0.0110815382  0.027646482
  81.1948929 -0.010455966  0.0280153546
  82.032608 -0.00985503849  0.0283776429
  82.8789673 -0.0092841303  0.028742075
  83.7340622 -0.00869831443  0.0291111525
  84.5979767 -0.00809170399  0.0294850059
  85.4708023 -0.00733875204  0.029863663
  86.3526306 -0.00653097732  0.0301131867
  87.2435608 -0.00569291506  0.0302613862
  88.1436844 -0.00498052454  0.0301402099
  89.0530853 -0.00434611784  0.030019518
  89.9718857 -0.00379859796  0.0298993122
  90.9001465 -0.00330753438  0.0297795758
  91.8379974 -0.00284597673  0.029660305
  92.7855301 -0.00241515692  0.0295415223
  93.7428284 -0.00200765627  0.0294232015
  94.7099991 -0.00161820056  0.0293053593
  95.6871567 -0.00124475849  0.0291880053
  96.6743927 -0.000883479603  0.0290710889
  97.6718216 -0.000534387189  0.0289546326
  98.6795349 -0.000190457271  0.0288386941
  99.6976471  0.000146733844  0.0287232008
  100.726257  0.000477151509  0.0286081862
  101.765488  0.000815156091  0.0284936707
  102.815437  0.00115441123  0.0283733364
  103.876221  0.0015020814  0.0282430984
  104.947945  0.0018430216  0.0280803889
  106.030724  0.00216868683  0.027910972
  107.12468  0.00247272942  0.0277424585
  108.229919  0.00277242786  0.027575044
  109.346573  0.00306481821  0.0274086762
  110.474739  0.00335738342  0.0272433665
  111.61454  0.0036476166  0.0270789824
  112.766113  0.00393302087  0.0269155614
  113.92955  0.00422800006  0.026753122
  115.105003  0.00452161627  0.026591612
  116.292587  0.00481714308  0.0264310259
  117.492416  0.00512837525  0.0262715928
  118.70462  0.00544291735  0.0261131208
  119.929337  0.00577266142  0.0259555224
  121.166695  0.00613295427  0.0257988535
  122.416809  0.00651536649  0.0256431494
  123.679832  0.00698437914  0.0254884381
  124.955879  0.00748508051  0.0251690559
  126.245087  0.00798819494  0.0247490797
  127.547607  0.00835169572  0.0242683962
  128.863556  0.00866266713  0.0237970427
  130.193085  0.00892263185  0.0233348273
  131.536331  0.00914501771  0.0228816159
  132.893448  0.00934663042  0.0224372018
  134.264542  0.00952551886  0.0220014285
  135.649796  0.00968410261  0.0215740986
  137.049347  0.00982832536  0.0211550668
  138.463318  0.00995718595  0.0207441896
  139.891907  0.0100738378  0.0203412902
  141.33522  0.0101800933  0.0199462157
  142.793427  0.0102763679  0.0195588116
  144.266663  0.0103652133  0.0191789269
  145.755112  0.0104467571  0.0188064184
  147.258926  0.0105262138  0.0184411649
  148.778244  0.0106047615  0.0180829987
  150.313232  0.0106845591  0.0177317783
  151.864075  0.0107610421  0.0173488092
  153.430908  0.0108240331  0.016967576
  155.013916  0.0108645558  0.0165938288
  156.613235  0.0108942091  0.0162283108
  158.22908  0.0109160077  0.0158708319
  159.861572  0.0109301396  0.0155212292
  161.510925  0.0109388884  0.0151793258
  163.177292  0.0109426491  0.0148449568
  164.86084  0.0109431949  0.0145179676
  166.561768  0.0109411543  0.0141981691
  168.280243  0.0109367603  0.0138854105
  170.016449  0.0109342244  0.0135795493
  171.770569  0.0109319929  0.0132804289
  173.542786  0.0109327743  0.0129879033
  175.333282  0.0109483842  0.0127018038
  177.142273  0.0109745888  0.0124123879
  178.96991  0.0110306544  0.0120979352
  180.816391  0.0110655017  0.0117319822
  182.681931  0.0110805463  0.0113481786
  184.566742  0.0110322982  0.0109768715
  186.470978  0.0109722028  0.0106177554
  188.394852  0.0109022642  0.0102704102
  190.338593  0.0108162649  0.00993437227
  192.302383  0.0107240966  0.00960935466
  194.286438  0.0106245046  0.00929500628
  196.290955  0.0105167944  0.00899089966
  198.316162  0.0104056178  0.00869673584
  200.362244  0.0102894753  0.00841218699
  202.429443  0.0101687526  0.00813510083
  204.51799  0.0100455768  0.0078664599
  206.628067  0.00991685968  0.00760670891
  208.759918  0.00978557393  0.00735550141
  210.913773  0.00965290144  0.00711257569
  213.089844  0.00951595511  0.00687771896
  215.288361  0.00937787257  0.00665060477
  217.509567  0.00923848059  0.00643097889
  219.753693  0.00909454282  0.00621859636
  222.020966  0.00894852821  0.00601522392
  224.31163  0.00879821368  0.00582216727
  226.625931  0.00865060277  0.0056460388
  228.964111  0.00850713812  0.0054781572
  231.326416  0.00837190822  0.00531526795
  233.713089  0.00823901407  0.00515721878
  236.12439  0.00810829364  0.00500387093
  238.560562  0.00798000209  0.00485508097
  241.021866  0.0078537371  0.00471072085
  243.508591  0.00772944884  0.00457065646
  246.020935  0.00760731986  0.00443475135
  248.559204  0.00748716528  0.00430288445
  251.123688  0.0073690312  0.00417493004
  253.71463  0.00725322124  0.00405079313
  256.332306  0.00713953841  0.00393034704
  258.976959  0.00702837901  0.00381347607
  261.648895  0.00692182919  0.00370008615
  264.348419  0.00681864237  0.00358946435
  267.075806  0.00672087446  0.00347882533
  269.831299  0.00662270281  0.00336206704
  272.615265  0.00652444689  0.00324275577
  275.427917  0.00641863327  0.00312767318
  278.269623  0.00631258683  0.00301668001
  281.140625  0.00620609615  0.0029096303
  284.041229  0.00609887671  0.00280637853
  286.971802  0.00599245401  0.00270678871
  289.932587  0.00588642806  0.00261073047
  292.92392  0.00578090129  0.00251808111
  295.946106  0.00567654101  0.00242872024
  298.999481  0.00557290297  0.00234253542
  302.084381  0.00547030894  0.00225940393
  305.20108  0.00536904484  0.00217922078
  308.349915  0.00526860915  0.00210189028
  311.531311  0.00516954064  0.00202729972
  314.745453  0.00507187378  0.00195535738
  317.992798  0.00497521134  0.00188596675
  321.273651  0.00488002226  0.00181903783
  324.588348  0.00478615751  0.00175448193
  327.937225  0.00469347835  0.00169222371
  331.320679  0.00460228371  0.00163217355
  334.739014  0.0045123715  0.0015742504
  338.192627  0.00442373939  0.00151838188
  341.681885  0.00433655083  0.00146449695
  345.207153  0.00425048405  0.00141252822
  348.768768  0.00416568434  0.00136240362
  352.367126  0.0040822411  0.00131405669
  356.002594  0.0039992081  0.00126742327
  359.675629  0.00391746499  0.00122352107
  363.386505  0.00383691792  0.0011824097
  367.135712  0.0037590228  0.00114330323
  370.923553  0.00368302222  0.00110556837
  374.750519  0.0036089404  0.00106907927
  378.616943  0.00353647652  0.00103379576
  382.523254  0.00346552767  0.000999676296
  386.46991  0.00339608733  0.000966679188
  390.457214  0.00332807237  0.00093477522
  394.485718  0.0032614388  0.000903925276
  398.555756  0.00319617102  0.000874091638
  402.667786  0.00313223409  0.000845242757
  406.822235  0.00306959962  0.000817346212
  411.019592  0.00300826132  0.000790368009
  415.260193  0.00294818101  0.000764281605
  419.544586  0.00288934656  0.000739057141
  423.873169  0.00283178268  0.000714665686
  428.246399  0.00277547515  0.000691078836
  432.664795  0.00272053992  0.000668268651
  437.128754  0.00266686478  0.000645549793
  441.638733  0.00261424435  0.00062326726
  446.195312  0.00256213732  0.000601411506
  450.798859  0.00251082494  0.000580334803
  455.44989  0.00246035587  0.000560005603
  460.148926  0.00241071358  0.000540385372
  464.896423  0.00236201356  0.000521450478
  469.692932  0.00231422298  0.000503176183
  474.53891  0.00226728548  0.000485545868
  479.434875  0.00222126977  0.000468532293
  484.381378  0.00217615673  0.000452111679
  489.378937  0.00213191845  0.000436251081
  494.42804  0.00208856585  0.000420923432
  499.529236  0.00204609474  0.000406057574
  504.683014  0.00200443552  0.0003916196
  509.890015  0.00196358049  0.000377634307
  515.150696  0.00192336109  0.000364091975
  520.465698  0.00188390643  0.000351045863
  525.83551  0.00184520322  0.000338477548
  531.260803  0.00180723332  0.000326392008
  536.742004  0.00177003338  0.000314745994
  542.279724  0.00173358829  0.000303525507
  547.874573  0.00169792934  0.000292707206
  553.527222  0.00166301371  0.000282238296
  559.238159  0.00162882253  0.000272035279
  565.007996  0.00159525464  0.000262148067
  570.837341  0.00156233367  0.000252586498
  576.726868  0.00153002841  0.000243302784
  582.677185  0.0014983255  0.00023435145
  588.688904  0.0014672284  0.000225722586
  594.762573  0.00143671676  0.00021740071
  600.898926  0.00140681362  0.000209385951
  607.098572  0.00137749978  0.00020166696
  613.362305  0.00134877139  0.000194232329
  619.690552  0.00132064056  0.000187069178
  626.084106  0.00129310065  0.000180164367
  632.54364  0.00126612966  0.00017344761
  639.069763  0.00123970793  0.000166935526
  645.66333  0.00121378433  0.000160564043
  652.324829  0.00118830695  0.000154386362
  659.055115  0.00116329116  0.000148416511
  665.854797  0.00113855687  0.000142679812
  672.724609  0.00111428741  0.000137286115
  679.665344  0.0010904721  0.000132218833
  686.677734  0.00106729462  0.000127504842
  693.76239  0.00104466954  0.000122988407
  700.920166  0.00102260942  0.000118659933
  708.151794  0.00100109901  0.000114375129
  715.458069  0.000980046811  0.00011019699
  722.839661  0.000959390367  0.00010610398
  730.297485  0.000939121528  0.000102163584
  737.832214  0.000919255952  9.83697173E-05
  745.444702  0.000899792765  9.47159569E-05
  753.135681  0.000880728476  9.11976895E-05
  760.906067  0.000862056739  8.78098508E-05
  768.756592  0.000843767019  8.4542582E-05
  776.68811  0.000825858908  8.13903971E-05
  784.701477  0.000808322628  7.83471914E-05
  792.797546  0.000791132683  7.5408032E-05
  800.977051  0.000774295011  7.25775608E-05
  809.241028  0.000757794711  6.98531439E-05
  817.59021  0.000741630967  6.72303431E-05
  826.025635  0.0007258025  6.4705775E-05
  834.547974  0.000710295397  6.22760417E-05
  843.158325  0.000695107388  5.99372761E-05
  851.857422  0.000680235331  5.76861858E-05
  860.646423  0.000665659842  5.55174811E-05
  869.526001  0.00065138744  5.3429223E-05
  878.497192  0.000637411373  5.14183776E-05
  887.560913  0.000623715809  4.94834312E-05
  896.718201  0.000610303774  4.7621339E-05
  905.96991  0.000597164675  4.58294853E-05
  915.3172  0.000584294845  4.41051816E-05
  924.760803  0.000571693527  4.24448917E-05
  934.30188  0.000559346343  4.08440792E-05
  943.941345  0.000547247357  3.93037662E-05
  953.680359  0.000535397732  3.78215809E-05
  963.519836  0.000523783034  3.63955005E-05
  973.460754  0.000512405997  3.50227056E-05
  983.504333  0.000501263421  3.37012752E-05
  993.651489  0.000490338483  3.24322718E-05
  1003.90332  0.000479635986  3.12122938E-05
  1014.26093  0.000469145976  3.00397805E-05
  1024.72534  0.00045886726  2.89307991E-05
  1035.29785  0.000448808802  2.78620537E-05
  1045.97937  0.000438968098  2.68227941E-05
  1056.77112  0.000429314532  2.58114596E-05
  1067.67419  0.00041985503  2.48341676E-05
  1078.68982  0.000410567853  2.38935554E-05
  1089.81897  0.000401463622  2.298861E-05
  1101.06299  0.000392544316  2.21179635E-05
  1112.4231  0.000383781968  2.12801879E-05
  1123.90039  0.000375195028  2.04742373E-05
  1135.49597  0.000366777851  1.96988967E-05
  1147.2113  0.000358504272  1.89529637E-05
  1159.04749  0.000350394694  1.82352196E-05
  1171.00574  0.000342435844  1.75445475E-05
  1183.0874  0.000334611308  1.68800398E-05
  1195.2937  0.000326938258  1.62407305E-05
  1207.62598  0.000319393177  1.56256556E-05
  1220.08545  0.000311975513  1.50338556E-05
  1232.67346  0.000304697227  1.44647038E-05
  1245.39136  0.000297515828  1.39194563E-05
  1258.2406  0.000290456461  1.33962249E-05
  1271.22229  0.000283522502  1.28939582E-05
  1284.33789  0.000276657083  1.24134085E-05
  1297.58887  0.00026990645  1.19508413E-05
  1310.97656  0.000263251684  1.15054509E-05
  1324.50232  0.000256645959  1.10766823E-05
  1338.1676  0.000250135083  1.066389E-05
  1351.974  0.000243668444  1.0266458E-05
  1365.92273  0.00023722295  9.88386182E-06
  1380.0155  0.000230846941  9.5155392E-06
  1394.25366  0.000224424744  9.16097542E-06
  1408.63867  0.00021798088  8.81965389E-06
  1423.17188  0.000211566206  8.49106709E-06
  1437.85535  0.000204895856  8.17462842E-06
  1452.69019  0.000198116584  7.8691437E-06
  1467.6781  0.000191187835  7.5741159E-06
  1482.82056  0.000183541648  7.28770192E-06
  1498.11938  0.000175362657  7.00825512E-06
  1513.57605  0.000166137019  6.73255045E-06
  1529.19202  0.00015295342  6.46661965E-06
  1544.96936  0.000121374476  6.21087656E-06
  1560.90918  4.7743677E-05  7.09404048E-05
  1577.01367  0.000131862311  6.85331761E-05
  1593.2843  0.000148445703  6.62075327E-05
  1609.72278  0.000153299916  6.39610153E-05
  1626.33081  0.000156492271  6.17908954E-05
  1643.11035  0.000158195893  5.9694521E-05
  1660.06274  0.000158602212  5.766912E-05
  1677.19019  0.000158596333  5.57124367E-05
  1694.49438  0.000158105002  5.38221866E-05
  1711.97705  0.000157214017  5.19960158E-05
  1729.64014  0.000156140188  5.0221588E-05
  1747.48547  0.000154823298  4.84799712E-05
  1765.51489  0.000153316098  4.67899481E-05
  1783.73022  0.000151705273  4.51539308E-05
  1802.13367  0.000149938918  4.3567492E-05
  1820.72681  0.000148095991  4.2036736E-05
  1839.51184  0.000146202234  4.05597129E-05
  1858.49072  0.00014421143  3.91346439E-05
  1877.66541  0.000142199031  3.77595788E-05
  1897.03796  0.000140157877  3.64327352E-05
  1916.61035  0.000138073156  3.51527342E-05
  1936.38477  0.000135986062  3.39177604E-05
  1956.36316  0.000133884343  3.27261951E-05
  1976.54761  0.000131770226  3.15764482E-05
  1996.94019  0.000129666689  3.04695295E-05
  2017.54346  0.000127565683  2.9411236E-05
  2038.35913  0.000125479331  2.83720146E-05
  2059.3894  0.000123411752  2.7359245E-05
  2080.63696  0.000121329947  2.63787024E-05
  2102.10376  0.000119265103  2.54319766E-05
  2123.79175  0.000117218136  2.45179508E-05
  2145.70361  0.000115177871  2.36351625E-05
  2167.84155  0.00011316083  2.27827913E-05
  2190.20801  0.000111162692  2.19591348E-05
  2212.80518  0.000109180495  2.11641873E-05
  2235.63525  0.00010722375  2.03972395E-05
  2258.70117  0.000105286606  1.96565124E-05
  2282.00488  0.000103371276  1.89415932E-05
  2305.54907  0.000101482707  1.82520162E-05
  2329.33643  9.961451E-05  1.75862679E-05
  2353.3689  9.77719756E-05  1.69437808E-05
  2377.64941  9.59567915E-05  1.63239856E-05
  2402.18066  9.41626058E-05  1.57258473E-05
  2426.9646  9.23966145E-05  1.5149144E-05
  2452.00439  9.06570203E-05  1.45929716E-05
  2477.30249  8.89409057E-05  1.40557813E-05
  2502.86182  8.72527526E-05  1.3537935E-05
  2528.68457  8.55898907E-05  1.30386816E-05
  2554.77393  8.39519271E-05  1.2557115E-05
  2581.13257  8.23415539E-05  1.20929471E-05
  2607.76294  8.0755919E-05  1.16453502E-05
  2634.66821  7.91964339E-05  1.12137086E-05
  2661.85083  7.76640736E-05  1.07976839E-05
  2689.31421  7.6155382E-05  1.03966422E-05
  2717.06055  7.46729274E-05  1.00099905E-05
  2745.09351  7.32162225E-05  9.63720959E-06
  2773.41577  7.17830699E-05  9.27787551E-06
  2802.03003  7.03758487E-05  8.93171364E-06
  2830.93945  6.89932422E-05  8.5981419E-06
  2860.14722  6.76341006E-05  8.27656731E-06
  2889.65625  6.62999228E-05  7.96678887E-06
  2919.46997  6.49891954E-05  7.66825633E-06
  2949.59106  6.3701882E-05  7.38058134E-06
  2980.02295  6.24385139E-05  7.10351424E-06
  3010.7688  6.11973301E-05  6.83659891E-06
  3041.83203  5.99792256E-05  6.57944929E-06
  3073.21558  5.8784095E-05  6.33176569E-06
  3104.9231  5.76100429E-05  6.09308154E-06
  3136.95752  5.64583715E-05  5.86327178E-06
  3169.323  5.53283353E-05  5.64196125E-06
  3202.02197  5.42189155E-05  5.4287525E-06
  3235.05811  5.31308942E-05  5.22348546E-06
  3268.4353  5.20634785E-05  5.02580724E-06
  3302.15698  5.10160644E-05  4.83537406E-06
  3336.22656  4.99889247E-05  4.65204448E-06
  3370.64746  4.89811173E-05  4.47552793E-06
  3405.42358  4.79926493E-05  4.30558794E-06
  3440.55835  4.70234554E-05  4.14201804E-06
  3476.05591  4.60725714E-05  3.98448265E-06
