 Li Density=0.534
 Energy(eV), Delta, Beta
  30.  0.0236909911  0.00408540433
  30.3095207  0.0229935553  0.00396287302
  30.6222324  0.0223029274  0.00384902419
  30.9381752  0.0216248911  0.00373955071
  31.2573738  0.0209608786  0.00363387936
  31.5798683  0.0203032568  0.00353120081
  31.9056873  0.0196572766  0.00343142357
  32.2348709  0.0190224424  0.00333446218
  32.5674477  0.0183927733  0.00324023631
  32.9034576  0.0177746806  0.00314867776
  33.2429352  0.0171651412  0.00305971573
  33.5859146  0.0165613797  0.00297326478
  33.9324303  0.0159685854  0.0028892518
  34.2825241  0.0153815551  0.00280759903
  34.6362267  0.0148014324  0.00272827176
  34.9935799  0.0142318262  0.00265119085
  35.3546219  0.0136652831  0.00257626572
  35.7193871  0.0131079732  0.00250346679
  36.0879173  0.0125611154  0.00243273121
  36.460247  0.0120139541  0.00235630665
  36.836422  0.01147357  0.00228143507
  37.2164764  0.0109365433  0.00220800401
  37.6004486  0.0103969099  0.00213693199
  37.9883881  0.00986464787  0.00206814939
  38.3803253  0.00933361519  0.00200158567
  38.77631  0.00880250242  0.00193715899
  39.1763763  0.00827842765  0.00187480554
  39.580574  0.00775084691  0.00181445619
  39.9889412  0.00722501241  0.00175605423
  40.4015198  0.00670563802  0.00169953483
  40.8183594  0.00617650524  0.00164483045
  41.2394943  0.005651074  0.00159188826
  41.664978  0.00512808608  0.00154064968
  42.0948486  0.00459295604  0.00149141066
  42.5291557  0.00406157784  0.00144409353
  42.9679451  0.00352618727  0.00139884977
  43.4112587  0.00297928811  0.00135502522
  43.8591461  0.0024345587  0.00131257391
  44.311657  0.00187594106  0.00127145089
  44.768837  0.0013055437  0.00123161648
  45.230732  0.000734951755  0.00119302992
  45.6973915  0.000135260634  0.00115565513
  46.168869 -0.000475893612  0.00111944904
  46.6452103 -0.00109289284  0.0010843752
  47.126461 -0.0017593794  0.00105040264
  47.6126823 -0.00243845419  0.00101749436
  48.10392 -0.00314340228  0.000985616236
  48.6002274 -0.00391351664  0.000954737596
  49.1016464 -0.00470835064  0.000924826425
  49.6082497 -0.0055701891  0.000895851699
  50.1200714 -0.00652806787  0.000867137744
  50.6371803 -0.00753633538  0.000839032349
  51.1596222 -0.00871763285  0.000811497797
  51.6874504 -0.0100779887  0.000784866163
  52.2207298 -0.0115546621  0.000759128132
  52.75951 -0.0136190541  0.000734935864
  53.3038483 -0.0163331609  0.000712333305
  53.8538017 -0.0197672211  0.000691343856
  54.4094276 -0.0305032004  0.00067097292
  54.9707909 -0.0319258012  0.0214539208
  55.537941 -0.0228239708  0.0222215839
  56.1109467 -0.0188032873  0.0230167713
  56.6898613 -0.0164207984  0.0238404088
  57.2747498 -0.0146242743  0.0246934425
  57.8656731 -0.0128771383  0.0254507102
  58.4626923 -0.0111897551  0.0261322372
  59.065876 -0.00960404798  0.0265194513
  59.6752777 -0.00812135451  0.0268433169
  60.290966 -0.00673370017  0.0271072499
  60.9130096 -0.00539388182  0.0272512063
  61.5414696 -0.00409592129  0.0273676347
  62.1764145 -0.00283403718  0.0274493471
  62.8179131 -0.00150908169  0.0274787676
  63.4660225 -0.000173075721  0.0274119917
  64.1208267  0.0012196094  0.0271148775
  64.7823868  0.00255952822  0.0266862512
  65.4507599  0.00382707617  0.0261550806
  66.1260452  0.00493144011  0.0253179185
  66.8082886  0.00593841542  0.0245075338
  67.4975739  0.00686263433  0.0237142332
  68.1939697  0.00753775844  0.0224522743
  68.8975449  0.00798994489  0.0213237535
  69.6083908  0.00819334574  0.0203279871
  70.326561  0.00827622693  0.0194575023
  71.0521469  0.0083171092  0.0186797306
  71.7852173  0.00830840226  0.0180243813
  72.5258484  0.00826073252  0.0173920784
  73.2741241  0.00818815548  0.0168087035
  74.0301132  0.00806618296  0.0163479242
  74.7939148  0.00796029903  0.0159439072
  75.5655899  0.00786512904  0.0155808125
  76.3452225  0.0077907485  0.0153042674
  77.1328964  0.00772781344  0.0150334416
  77.9287109  0.00767513271  0.0147681655
  78.7327271  0.00764297135  0.0146012986
  79.5450363  0.00764918514  0.0144419791
  80.3657379  0.00771308271  0.0142853716
  81.1948929  0.00781240501  0.0141189834
  82.032608  0.00792056788  0.0139397606
  82.8789673  0.00804167334  0.0137281045
  83.7340622  0.00816216692  0.0135196662
  84.5979767  0.00828415155  0.0133143999
  85.4708023  0.0084390454  0.0131122507
  86.3526306  0.00861212425  0.0128928712
  87.2435608  0.00879557617  0.0126616061
  88.1436844  0.00900547858  0.0123599898
  89.0530853  0.00920227543  0.0120351315
  89.9718857  0.00938620232  0.0116817132
  90.9001465  0.00954776071  0.0112829683
  91.8379974  0.00967816077  0.0108560864
  92.7855301  0.00975874811  0.0103743672
  93.7428284  0.00975995697  0.00993605517
  94.7099991  0.00973290764  0.00952492096
  95.6871567  0.00969821587  0.00913796294
  96.6743927  0.00963516161  0.00872898288
  97.6718216  0.00955121685  0.00831856951
  98.6795349  0.00940299034  0.00794923864
  99.6976471  0.00928758737  0.00765809137
  100.726257  0.00920294225  0.00743726594
  101.765488  0.00912090112  0.00704718521
  102.815437  0.00899615511  0.00670738146
  103.876221  0.00880354922  0.00644877553
  104.947945  0.00864009187  0.00619980041
  106.030724  0.0084829526  0.00596214877
  107.12468  0.00832161959  0.00573878875
  108.229919  0.00816169195  0.00553579628
  109.346573  0.00800504629  0.00534688169
  110.474739  0.00785812829  0.00517536607
  111.61454  0.00771942874  0.00501323445
  112.766113  0.0075873984  0.00485913642
  113.92955  0.00746986503  0.0047060824
  115.105003  0.00735463807  0.00455345539
  116.292587  0.00724180881  0.00440024352
  117.492416  0.00712471036  0.00424985448
  118.70462  0.00700787175  0.00410427339
  119.929337  0.00689138751  0.00396368559
  121.166695  0.00677556125  0.00382791576
  122.416809  0.00666097598  0.00369679369
  123.679832  0.0065472573  0.00357015012
  124.955879  0.00643477403  0.00344785908
  126.245087  0.00632373244  0.00332976086
  127.547607  0.00621385733  0.00321568549
  128.863556  0.00610564603  0.00310551398
  130.193085  0.00599907106  0.00299911131
  131.536331  0.00589452265  0.00289608724
  132.893448  0.0057916427  0.002795459
  134.264542  0.00569030875  0.00269644498
  135.649796  0.00558863208  0.0026000482
  137.049347  0.00548773305  0.00250688172
  138.463318  0.00538705476  0.00241704285
  139.891907  0.00528728263  0.00233042566
  141.33522  0.00518876547  0.0022469142
  142.793427  0.00509094493  0.00216640928
  144.266663  0.00499407109  0.00208877935
  145.755112  0.00489831716  0.0020139229
  147.258926  0.00480293157  0.00194375683
  148.778244  0.00470979046  0.00187686284
  150.313232  0.00461900095  0.00181332557
  151.864075  0.00453153299  0.00175126805
  153.430908  0.00444594398  0.00169084978
  155.013916  0.00436191075  0.00163165014
  156.613235  0.00427863514  0.0015738717
  158.22908  0.00419651577  0.00151790853
  159.861572  0.00411533145  0.00146393501
  161.510925  0.00403540256  0.00141188386
  163.177292  0.00395680964  0.0013616865
  164.86084  0.00387936202  0.00131328101
  166.561768  0.00380320591  0.00126658403
  168.280243  0.00372830802  0.00122153468
  170.016449  0.00365457148  0.00117828918
  171.770569  0.00358220842  0.00113669166
  173.542786  0.00351117575  0.00109673745
  175.333282  0.00344163063  0.00105845369
  177.142273  0.00337361731  0.00102157239
  178.96991  0.00330739468  0.000985975843
  180.816391  0.0032427907  0.000951361901
  182.681931  0.00317958812  0.000917652389
  184.566742  0.00311746891  0.000883559813
  186.470978  0.00305597601  0.000850547338
  188.394852  0.00299520348  0.000818613858
  190.338593  0.00293452223  0.000787685975
  192.302383  0.00287481444  0.000758271606
  194.286438  0.00281600421  0.000730434724
  196.290955  0.00275851833  0.000703821133
  198.316162  0.00270223292  0.000678266748
  200.362244  0.00264711096  0.000653771218
  202.429443  0.00259318901  0.000630158174
  204.51799  0.00254039653  0.000607397757
  206.628067  0.00248869532  0.000585463131
  208.759918  0.00243822229  0.000564319373
  210.913773  0.00238889083  0.00054391654
  213.089844  0.00234058313  0.00052363408
  215.288361  0.0022930305  0.000504045631
  217.509567  0.00224619918  0.000485122437
  219.753693  0.0022001476  0.000466823491
  222.020966  0.00215495401  0.000449208223
  224.31163  0.00211056112  0.000432260247
  226.625931  0.00206698617  0.00041594918
  228.964111  0.00202426175  0.000400252698
  231.326416  0.00198234268  0.000385147636
  233.713089  0.00194123772  0.000370616151
  236.12439  0.00190095126  0.000356634875
  238.560562  0.0018614484  0.00034317869
  241.021866  0.00182273635  0.000330230221
  243.508591  0.00178480288  0.000317770318
  246.020935  0.00174761959  0.000305778958
  248.559204  0.00171119312  0.00029423961
  251.123688  0.00167550158  0.000283134694
  253.71463  0.00164053298  0.000272449484
  256.332306  0.00160628359  0.000262168614
  258.976959  0.00157273363  0.000252278143
  261.648895  0.0015398775  0.000242758382
  264.348419  0.00150770368  0.000233596176
  267.075806  0.00147619669  0.000224776057
  269.831299  0.00144536758  0.000216295768
  272.615265  0.00141519576  0.00020813811
  275.427917  0.00138568529  0.000200215945
  278.269623  0.00135677133  0.00019255298
  281.140625  0.00132843957  0.000185135606
  284.041229  0.00130064681  0.000177961716
  286.971802  0.00127340574  0.000171058899
  289.932587  0.00124668947  0.000164419471
  292.92392  0.00122051302  0.000158037205
  295.946106  0.00119487429  0.000151902495
  298.999481  0.00116975373  0.000146005972
  302.084381  0.0011451504  0.000140338219
  305.20108  0.00112105766  0.000134890535
  308.349915  0.00109746179  0.00012965512
  311.531311  0.00107435719  0.000124622587
  314.745453  0.00105173467  0.000119785393
  317.992798  0.00102958386  0.000115135648
  321.273651  0.00100789638  0.000110666457
  324.588348  0.000986661529  0.000106370797
  327.937225  0.000965874002  0.000102242164
  331.320679  0.000945523614  9.82736747E-05
  334.739014  0.000925601518  9.44589483E-05
  338.192627  0.000906098576  9.07922513E-05
  341.681885  0.000887006463  8.72679157E-05
  345.207153  0.000868319185  8.38806518E-05
  348.768768  0.000850026147  8.06248281E-05
  352.367126  0.000832118676  7.74953078E-05
  356.002594  0.000814594445  7.44876234E-05
  359.675629  0.000797440764  7.15965871E-05
  363.386505  0.000780650647  6.88176879E-05
  367.135712  0.000764218741  6.61462691E-05
  370.923553  0.000748136081  6.357862E-05
  374.750519  0.000732397311  6.11106734E-05
  378.616943  0.000716999057  5.87386276E-05
  382.523254  0.000701931014  5.64559668E-05
  386.46991  0.000687194406  5.42513408E-05
  390.457214  0.000672765542  5.21154652E-05
  394.485718  0.000658637262  5.00538226E-05
  398.555756  0.000644793501  4.80710478E-05
  402.667786  0.000631239032  4.61661766E-05
  406.822235  0.000617968035  4.4336186E-05
  411.019592  0.000604975503  4.25780454E-05
  415.260193  0.000592256954  4.08899541E-05
  419.544586  0.000579806918  3.926926E-05
  423.873169  0.000567620096  3.77128163E-05
  428.246399  0.000555691018  3.62179526E-05
  432.664795  0.000544016308  3.47820023E-05
  437.128754  0.000532590377  3.3403081E-05
  441.638733  0.000521406881  3.20786239E-05
  446.195312  0.000510464015  3.08051276E-05
  450.798859  0.000499754096  2.9577197E-05
  455.44989  0.000489271188  2.83944937E-05
  460.148926  0.000479008042  2.72530069E-05
  464.896423  0.000468959159  2.6155989E-05
  469.692932  0.000459119707  2.51013935E-05
  474.53891  0.000449485786  2.40891422E-05
  479.434875  0.000440054544  2.31177528E-05
  484.381378  0.000430822663  2.21856408E-05
  489.378937  0.000421785633  2.12912109E-05
  494.42804  0.000412939058  2.0432868E-05
  499.529236  0.000404280407  1.9609126E-05
  504.683014  0.000395804294  1.88186368E-05
  509.890015  0.000387506385  1.80600473E-05
  515.150696  0.000379385281  1.73324934E-05
  520.465698  0.00037143525  1.66349382E-05
  525.83551  0.000363652798  1.59661304E-05
  531.260803  0.000356037286  1.5326852E-05
  536.742004  0.000348583504  1.47138126E-05
  542.279724  0.000341289153  1.41260834E-05
  547.874573  0.000334153447  1.35615783E-05
  553.527222  0.0003271694  1.30180842E-05
  559.238159  0.000320335239  1.24919816E-05
  565.007996  0.000313642377  1.19854412E-05
  570.837341  0.000307088892  1.14988197E-05
  576.726868  0.000300673855  1.10329065E-05
  582.677185  0.000294394064  1.0586301E-05
  588.688904  0.000288246374  1.01580945E-05
  594.762573  0.000282230438  9.74753675E-06
  600.898926  0.000276341219  9.3534527E-06
  607.098572  0.000270576391  8.97513746E-06
  613.362305  0.000264934904  8.61227545E-06
  619.690552  0.000259413209  8.26400446E-06
  626.084106  0.000254010141  7.92958963E-06
  632.54364  0.000248722528  7.60511148E-06
  639.069763  0.000243546121  7.29149815E-06
  645.66333  0.000238477674  6.98545318E-06
  652.324829  0.000233512095  6.68973098E-06
  659.055115  0.000228647696  6.40500002E-06
  665.854797  0.000223876312  6.13236944E-06
  672.724609  0.00021920311  5.87708018E-06
  679.665344  0.000214625994  5.63819231E-06
  686.677734  0.00021015355  5.41683812E-06
  693.76239  0.000205778444  5.20556068E-06
  700.920166  0.000201500196  5.00383203E-06
  708.151794  0.000197317  4.80476047E-06
  715.458069  0.000193222062  4.61134005E-06
  722.839661  0.000189211787  4.42254805E-06
  730.297485  0.00018528389  4.24149903E-06
  737.832214  0.000181437324  4.06786876E-06
  745.444702  0.000177671856  3.90135028E-06
  753.135681  0.000173985347  3.74165415E-06
  760.906067  0.00017037589  3.58849434E-06
  768.756592  0.000166842292  3.44149748E-06
  776.68811  0.00016338272  3.30040643E-06
  784.701477  0.000159995805  3.16494902E-06
  792.797546  0.000156679889  3.03487013E-06
  800.977051  0.00015343311  2.91012157E-06
  809.241028  0.000150254244  2.79052142E-06
  817.59021  0.000147142113  2.67582777E-06
  826.025635  0.00014409484  2.56584372E-06
  834.547974  0.000141111464  2.46037825E-06
  843.158325  0.000138190473  2.35931134E-06
  851.857422  0.000135330454  2.26244583E-06
  860.646423  0.000132530622  2.16967283E-06
  869.526001  0.000129789245  2.08075539E-06
  878.497192  0.000127105101  1.99553506E-06
  887.560913  0.00012447765  1.91382173E-06
  896.718201  0.000121904857  1.83545296E-06
  905.96991  0.000119385724  1.76029209E-06
  915.3172  0.000116919568  1.68820702E-06
  924.760803  0.000114504845  1.61897128E-06
  934.30188  0.000112140689  1.55223529E-06
  943.941345  0.000109825647  1.48819049E-06
  953.680359  0.00010755859  1.42674924E-06
  963.519836  0.000105338899  1.36777828E-06
  973.460754  0.000103165381  1.31123909E-06
  983.504333  0.000101036974  1.25703207E-06
  993.651489  9.89530745E-05  1.20511334E-06
  1003.90332  9.69123357E-05  1.15536238E-06
  1014.26093  9.49139067E-05  1.10769372E-06
  1024.72534  9.29573434E-05  1.06237303E-06
  1035.29785  9.10414819E-05  1.01892488E-06
  1045.97937  8.91657764E-05  9.77137461E-07
  1056.77112  8.73292374E-05  9.36934612E-07
  1067.67419  8.55307371E-05  8.98338669E-07
  1078.68982  8.3769417E-05  8.61332182E-07
  1089.81897  8.20447822E-05  8.2585251E-07
  1101.06299  8.03559305E-05  7.91836158E-07
  1112.4231  7.87023164E-05  7.59218665E-07
  1123.90039  7.70829429E-05  7.27946826E-07
  1135.49597  7.54971479E-05  6.97964992E-07
  1147.2113  7.39442621E-05  6.69219673E-07
  1159.04749  7.24235433E-05  6.41654879E-07
  1171.00574  7.09344895E-05  6.15219108E-07
  1183.0874  6.94762639E-05  5.8987888E-07
  1195.2937  6.80481753E-05  5.65584571E-07
  1207.62598  6.66497654E-05  5.42289172E-07
  1220.08545  6.52804447E-05  5.19950277E-07
  1232.67346  6.39394639E-05  4.98524685E-07
  1245.39136  6.26262699E-05  4.77927131E-07
  1258.2406  6.13402372E-05  4.58141045E-07
  1271.22229  6.00808053E-05  4.3914082E-07
  1284.33789  5.88474722E-05  4.20837523E-07
  1297.58887  5.76394959E-05  4.03295189E-07
  1310.97656  5.64563888E-05  3.86485993E-07
  1324.50232  5.52978599E-05  3.70379553E-07
  1338.1676  5.41632216E-05  3.54943921E-07
  1351.974  5.30520156E-05  3.40149313E-07
  1365.92273  5.19637688E-05  3.25972906E-07
  1380.0155  5.08979465E-05  3.12388067E-07
  1394.25366  4.98542504E-05  2.99369617E-07
  1408.63867  4.8832022E-05  2.86894448E-07
  1423.17188  4.78308102E-05  2.74939566E-07
  1437.85535  4.68503968E-05  2.63481041E-07
  1452.69019  4.58901704E-05  2.524975E-07
  1467.6781  4.49497311E-05  2.41968877E-07
  1482.82056  4.40288131E-05  2.31866608E-07
  1498.11938  4.31268127E-05  2.22169021E-07
  1513.57605  4.22433513E-05  2.12845606E-07
  1529.19202  4.13781272E-05  2.03909096E-07
  1544.96936  4.0530671E-05  1.95346857E-07
  1560.90918  3.97006515E-05  1.87144906E-07
  1577.01367  3.88877233E-05  1.79286829E-07
  1593.2843  3.80915117E-05  1.71758714E-07
  1609.72278  3.73117437E-05  1.64546535E-07
  1626.33081  3.65480228E-05  1.57637515E-07
  1643.11035  3.57999998E-05  1.51018739E-07
  1660.06274  3.50674345E-05  1.44678054E-07
  1677.19019  3.43498941E-05  1.38603937E-07
  1694.49438  3.3647073E-05  1.32785132E-07
  1711.97705  3.29588074E-05  1.27210711E-07
  1729.64014  3.22846754E-05  1.21860268E-07
  1747.48547  3.1624375E-05  1.16707461E-07
  1765.51489  3.0977626E-05  1.11764045E-07
  1783.73022  3.03441393E-05  1.07025414E-07
  1802.13367  2.97236493E-05  1.0248025E-07
  1820.72681  2.91159267E-05  9.81282327E-08
  1839.51184  2.85206788E-05  9.39614253E-08
  1858.49072  2.79376563E-05  8.99931436E-08
  1877.66541  2.73665773E-05  8.62136957E-08
  1897.03796  2.68072054E-05  8.26180511E-08
  1916.61035  2.62593639E-05  7.91725085E-08
  1936.38477  2.57227603E-05  7.58710073E-08
  1956.36316  2.51971978E-05  7.2707472E-08
  1976.54761  2.46824566E-05  6.96759699E-08
  1996.94019  2.41782564E-05  6.67710509E-08
  2017.54346  2.36843462E-05  6.39875068E-08
  2038.35913  2.32005914E-05  6.13199447E-08
  2059.3894  2.27267647E-05  5.87636713E-08
  2080.63696  2.2262695E-05  5.63143949E-08
  2102.10376  2.18081259E-05  5.39673231E-08
  2123.79175  2.13628646E-05  5.17181817E-08
  2145.70361  2.09267364E-05  4.95629457E-08
  2167.84155  2.04995267E-05  4.74978243E-08
  2190.20801  2.00810646E-05  4.55190623E-08
  2212.80518  1.96712117E-05  4.36228156E-08
  2235.63525  1.92697553E-05  4.18057517E-08
  2258.70117  1.88765171E-05  4.00646485E-08
  2282.00488  1.84913333E-05  3.83962195E-08
  2305.54907  1.8114024E-05  3.67974238E-08
  2329.33643  1.77444435E-05  3.52652663E-08
  2353.3689  1.73824283E-05  3.37972779E-08
  2377.64941  1.70278126E-05  3.23906377E-08
  2402.18066  1.66804984E-05  3.10354054E-08
  2426.9646  1.6340291E-05  2.9718878E-08
  2452.00439  1.60070394E-05  2.84359114E-08
  2477.30249  1.56806127E-05  2.72085305E-08
  2502.86182  1.53608344E-05  2.60343587E-08
  2528.68457  1.50475562E-05  2.49111629E-08
  2554.77393  1.47407145E-05  2.38364652E-08
  2581.13257  1.44401492E-05  2.28082797E-08
  2607.76294  1.41457394E-05  2.18247056E-08
  2634.66821  1.38573287E-05  2.08829238E-08
  2661.85083  1.35748041E-05  1.99813677E-08
  2689.31421  1.3298064E-05  1.91165554E-08
  2717.06055  1.30269818E-05  1.82894269E-08
  2745.09351  1.27614348E-05  1.74983033E-08
  2773.41577  1.25013257E-05  1.67414882E-08
  2802.03003  1.22465235E-05  1.6017621E-08
  2830.93945  1.19969145E-05  1.53252664E-08
  2860.14722  1.17524114E-05  1.46630157E-08
  2889.65625  1.15129023E-05  1.402924E-08
  2919.46997  1.12782918E-05  1.34221239E-08
  2949.59106  1.10484789E-05  1.28406858E-08
  2980.02295  1.08233571E-05  1.22842909E-08
  3010.7688  1.0602821E-05  1.17522765E-08
  3041.83203  1.03867915E-05  1.12434426E-08
  3073.21558  1.01751721E-05  1.07567724E-08
  3104.9231  9.96788549E-06  1.02913749E-08
  3136.95752  9.76482261E-06  9.84631132E-09
  3169.323  9.56589429E-06  9.4206607E-09
  3202.02197  9.37103687E-06  9.01310404E-09
  3235.05811  9.1801594E-06  8.62320437E-09
