 W Density=19.3
 Energy(eV), Delta, Beta
  30.  0.263110489  0.204713166
  30.3095207  0.254711926  0.197576836
  30.6222324  0.245786369  0.190689817
  30.9381752  0.236570626  0.184194103
  31.2573738  0.22725895  0.17803897
  31.5798683  0.217693686  0.172594562
  31.9056873  0.208133578  0.167316824
  32.2348709  0.198569849  0.16220057
  32.5674477  0.188330308  0.157549635
  32.9034576  0.178122431  0.153342828
  33.2429352  0.167864174  0.149746835
  33.5859146  0.157570213  0.146235317
  33.9324303  0.147170171  0.142806157
  34.2825241  0.135962278  0.139457285
  34.6362267  0.123931363  0.137430102
  34.9935799  0.111715481  0.136216596
  35.3546219  0.0997175053  0.136480272
  35.7193871  0.0879371837  0.136744604
  36.0879173  0.076409407  0.137009561
  36.460247  0.0620192625  0.137274906
  36.836422  0.0471019521  0.140644476
  37.2164764  0.0313740186  0.148674101
  37.6004486  0.0186754875  0.158629641
  37.9883881  0.00747825997  0.169911355
  38.3803253 -0.00185276615  0.183017835
  38.77631 -0.00869252626  0.197134018
  39.1763763 -0.0145708797  0.212338775
  39.580574 -0.0206845365  0.228721529
  39.9889412 -0.0213065445  0.251225919
  40.4015198 -0.0176580343  0.279061317
  40.8183594  0.00670444127  0.296383351
  41.2394943  0.0298464708  0.30468601
  41.664978  0.0517883338  0.302109629
  42.0948486  0.0679818764  0.299556762
  42.5291557  0.0827900171  0.293605179
  42.9679451  0.0965203047  0.28160122
  43.4112587  0.104207799  0.268853843
  43.8591461  0.108588845  0.255000085
  44.311657  0.107623242  0.237383559
  44.768837  0.100955188  0.227233261
  45.230732  0.0917286202  0.220862374
  45.6973915  0.0838084966  0.216353238
  46.168869  0.0751661658  0.214701504
  46.6452103  0.0659749135  0.215501159
  47.126461  0.0590214692  0.220186532
  47.6126823  0.0534865558  0.226105243
  48.10392  0.0497341082  0.233700231
  48.6002274  0.0490803272  0.242583588
  49.1016464  0.0504857004  0.252005279
  49.6082497  0.0556245632  0.261793524
  50.1200714  0.0641757026  0.270080745
  50.6371803  0.0743067563  0.276854783
  51.1596222  0.0869139209  0.278147578
  51.6874504  0.0991424471  0.277630717
  52.2207298  0.110908128  0.275742084
  52.75951  0.120690666  0.269552767
  53.3038483  0.129352733  0.263502359
  53.8538017  0.136847273  0.257587731
  54.4094276  0.144315228  0.250346005
  54.9707909  0.150951207  0.242309868
  55.537941  0.156283319  0.23294276
  56.1109467  0.159588948  0.223936439
  56.6898613  0.16202122  0.215278119
  57.2747498  0.163643986  0.206955209
  57.8656731  0.164702117  0.198954314
  58.4626923  0.165376201  0.19126299
  59.065876  0.165492743  0.183868289
  59.6752777  0.165324241  0.176760063
  60.290966  0.164904267  0.16992709
  60.9130096  0.164125741  0.163357288
  61.5414696  0.163194463  0.157041818
  62.1764145  0.162078843  0.150970757
  62.8179131  0.160772353  0.145133942
  63.4660225  0.159409076  0.13952288
  64.1208267  0.15800862  0.134128958
  64.7823868  0.156546161  0.128760368
  65.4507599  0.155002654  0.123489946
  66.1260452  0.153143749  0.118183658
  66.8082886  0.151109666  0.113105908
  67.4975739  0.148959011  0.108246647
  68.1939697  0.14662841  0.103595085
  68.8975449  0.144256324  0.0991436318
  69.6083908  0.141832039  0.0948835313
  70.326561  0.13935636  0.0908065885
  71.0521469  0.136892676  0.0869005397
  71.7852173  0.134433031  0.0831539705
  72.5258484  0.13191548  0.0793162361
  73.2741241  0.129352719  0.0755815506
  74.0301132  0.126601219  0.0720226541
  74.7939148  0.123787455  0.0686312765
  75.5655899  0.120956384  0.0653995425
  76.3452225  0.118039362  0.0623201914
  77.1328964  0.115110524  0.0593857653
  77.9287109  0.112176873  0.0565894358
  78.7327271  0.109161705  0.0539248288
  79.5450363  0.106091261  0.0513857156
  80.3657379  0.102907956  0.0489661135
  81.1948929  0.0996578336  0.0470229499
  82.032608  0.0965303183  0.0452489965
  82.8789673  0.0936709195  0.0435879715
  83.7340622  0.0908518657  0.0419879407
  84.5979767  0.0880618617  0.040446613
  85.4708023  0.0851475894  0.0389618874
  86.3526306  0.0822248235  0.037758559
  87.2435608  0.0793208033  0.0367600694
  88.1436844  0.0767834485  0.03593494
  89.0530853  0.074326925  0.0351283289
  89.9718857  0.0719512776  0.0343398005
  90.9001465  0.0695194006  0.0335690081
  91.8379974  0.0671288744  0.0329497419
  92.7855301  0.0647825077  0.0326267965
  93.7428284  0.062718004  0.0323244594
  94.7099991  0.0607920066  0.0320305638
  95.6871567  0.0589722618  0.0317393653
  96.6743927  0.0572197996  0.0314507782
  97.6718216  0.0555265099  0.0311682727
  98.6795349  0.0539016947  0.0309377257
  99.6976471  0.0523590483  0.030715486
  100.726257  0.0508947968  0.0305013712
  101.765488  0.0495019145  0.0302888919
  102.815437  0.0481576398  0.0300779454
  103.876221  0.0468652658  0.0298685245
  104.947945  0.0456238203  0.0296603162
  106.030724  0.0444215611  0.0294535775
  107.12468  0.0432610251  0.02924853
  108.229919  0.0421332829  0.02904482
  109.346573  0.0410350598  0.0288465135
  110.474739  0.0399625711  0.0286778696
  111.61454  0.0389379933  0.0285208281
  112.766113  0.0379549153  0.0283729751
  113.92955  0.0370231271  0.028225895
  115.105003  0.036122635  0.0280796234
  116.292587  0.0352549925  0.0279341694
  117.492416  0.0344234109  0.0277892668
  118.70462  0.0336188152  0.0276451148
  119.929337  0.032844767  0.0275017954
  121.166695  0.0321004242  0.0273593534
  122.416809  0.0313799419  0.0272176564
  123.679832  0.0306890998  0.0270764157
  124.955879  0.0300239548  0.0269360412
  126.245087  0.0293807462  0.0267964769
  127.547607  0.0287708826  0.0266575236
  128.863556  0.0281862244  0.0265123919
  130.193085  0.0276261605  0.0263609458
  131.536331  0.0270809513  0.0261939503
  132.893448  0.0265475232  0.0260268971
  134.264542  0.0260258839  0.0258611012
  135.649796  0.025521405  0.0256962627
  137.049347  0.0250305906  0.0255324394
  138.463318  0.0245561637  0.0253696367
  139.891907  0.0240977071  0.0252079517
  141.33522  0.0236523375  0.0250473432
  142.793427  0.0232250486  0.024887532
  144.266663  0.0228123683  0.0247288216
  145.755112  0.0224124957  0.0245711692
  147.258926  0.022033263  0.0244145226
  148.778244  0.0216685366  0.0242588371
  150.313232  0.0213204324  0.0241041109
  151.864075  0.0209990796  0.023936322
  153.430908  0.0206856746  0.0237620268
  155.013916  0.0203769356  0.0235763155
  156.613235  0.0200742409  0.0233922061
  158.22908  0.0197780095  0.0232096016
  159.861572  0.0194943286  0.0230284389
  161.510925  0.0192270521  0.0228486191
  163.177292  0.0189715754  0.0226686932
  164.86084  0.0187340211  0.0224592723
  166.561768  0.0184930004  0.0222497825
  168.280243  0.0182484761  0.0220401268
  170.016449  0.0180118438  0.0218324717
  171.770569  0.0177842304  0.0216267947
  173.542786  0.0175698958  0.0214230884
  175.333282  0.0173656121  0.0211912319
  177.142273  0.0171597544  0.0209530946
  178.96991  0.0169391036  0.0207142886
  180.816391  0.0167171955  0.0204782747
  182.681931  0.0164950006  0.020244984
  184.566742  0.016268434  0.0200143605
  186.470978  0.0160411224  0.0197935645
  188.394852  0.0158137009  0.0195812806
  190.338593  0.0156021882  0.0193765424
  192.302383  0.0153956739  0.019174058
  194.286438  0.015194756  0.0189736634
  196.290955  0.0150006106  0.0187753048
  198.316162  0.0148107912  0.0185790155
  200.362244  0.0146270255  0.0183848161
  202.429443  0.0144514479  0.0181926489
  204.51799  0.0142808082  0.0180007331
  206.628067  0.0141177364  0.0178017896
  208.759918  0.0139538962  0.0176038314
  210.913773  0.0137899788  0.0174072497
  213.089844  0.0136293983  0.0172128398
  215.288361  0.0134713259  0.0170206036
  217.509567  0.0133158891  0.0168305114
  219.753693  0.0131647009  0.0166425388
  222.020966  0.0130160339  0.0164566673
  224.31163  0.012870823  0.0162728932
  226.625931  0.0127297854  0.0160911269
  228.964111  0.0125912884  0.0159113891
  231.326416  0.0124571063  0.0157336779
  233.713089  0.0123267639  0.0155579941
  236.12439  0.0121989604  0.0153842699
  238.560562  0.0120765418  0.0152124073
  241.021866  0.0119575802  0.0150425052
  243.508591  0.0118415318  0.0148745282
  246.020935  0.011732161  0.0147083933
  248.559204  0.0116259335  0.0145441238
  251.123688  0.0115240449  0.0143817207
  253.71463  0.0114295771  0.0142210899
  256.332306  0.0113390507  0.0140622556
  258.976959  0.0112560876  0.0139052439
  261.648895  0.0111866286  0.0137499301
  264.348419  0.0111259446  0.0135963419
  267.075806  0.0110895028  0.0134445028
  269.831299  0.0110569261  0.013247069
  272.615265  0.0110250935  0.0130198253
  275.427917  0.0109588047  0.0127929579
  278.269623  0.0108853551  0.0125700366
  281.140625  0.0108043114  0.0123510053
  284.041229  0.010716809  0.0121358028
  286.971802  0.0106266383  0.0119243506
  289.932587  0.0105334297  0.0117165949
  292.92392  0.0104381358  0.0115124285
  295.946106  0.0103420289  0.0113118198
  298.999481  0.0102458615  0.0111147435
  302.084381  0.0101507995  0.0109188799
  305.20108  0.0100557869  0.0107248165
  308.349915  0.00995636359  0.010529289
  311.531311  0.00985509623  0.0103373155
  314.745453  0.00975226145  0.01014884
  317.992798  0.00964779686  0.00996380672
  321.273651  0.00954298954  0.00978214201
  324.588348  0.00943773333  0.00960377883
  327.937225  0.0093321139  0.00942870323
  331.320679  0.00922667142  0.00925681274
  334.739014  0.00912145991  0.00908802915
  338.192627  0.00901707076  0.00892109703
  341.681885  0.00891293492  0.00875653792
  345.207153  0.00880708452  0.00859390758
  348.768768  0.00870082993  0.00843430031
  352.367126  0.00859449804  0.00827765558
  356.002594  0.00848721154  0.00812390726
  359.675629  0.00837928336  0.00797301251
  363.386505  0.00827050582  0.00782492384
  367.135712  0.00815793965  0.0076804664
  370.923553  0.00804634206  0.00754318247
  374.750519  0.0079367226  0.00741732819
  378.616943  0.00783273112  0.00729357684
  382.523254  0.00773166586  0.00717189163
  386.46991  0.0076338402  0.00705223531
  390.457214  0.00753820362  0.00693457481
  394.485718  0.00744422991  0.00681887427
  398.555756  0.00735273352  0.00670511881
  402.667786  0.00726275844  0.00659325905
  406.822235  0.00717423251  0.00648326427
  411.019592  0.00708738156  0.0063750823
  415.260193  0.00700194063  0.0062697595
  419.544586  0.00691827899  0.00616784347
  423.873169  0.00683857407  0.00606786041
  428.246399  0.00676103448  0.00596955186
  432.664795  0.00668677362  0.00587282376
  437.128754  0.00661655655  0.00577767752
  441.638733  0.00654921867  0.00568407914
  446.195312  0.00648928387  0.00559199881
  450.798859  0.00643269625  0.00549317757
  455.44989  0.00637843646  0.00538989296
  460.148926  0.00632431684  0.00527819805
  464.896423  0.00626549311  0.00516658602
  469.692932  0.00620114431  0.00505456468
  474.53891  0.00613313681  0.00494489353
  479.434875  0.00606417796  0.00483758235
  484.381378  0.00599410059  0.00473258132
  489.378937  0.00592338247  0.00462988345
  494.42804  0.00585262943  0.00452944264
  499.529236  0.00578181865  0.00443127053
  504.683014  0.00571151078  0.00433516409
  509.890015  0.00564177148  0.00424105814
  515.150696  0.00557361497  0.00414834497
  520.465698  0.00550597021  0.00405649561
  525.83551  0.00543884607  0.00396554172
  531.260803  0.00537230354  0.00387258036
  536.742004  0.00530448183  0.00378075428
  542.279724  0.00523431273  0.00368983625
  547.874573  0.00516274525  0.00360123371
  553.527222  0.00509081967  0.00351448706
  559.238159  0.00501780352  0.00342893228
  565.007996  0.00494123297  0.00334600871
  570.837341  0.00486368267  0.00326647516
  576.726868  0.00478715403  0.00319696567
  582.677185  0.00471297046  0.00313028251
  588.688904  0.00464079622  0.00306603964
  594.762573  0.00457376195  0.00300459703
  600.898926  0.00450875936  0.00294439425
  607.098572  0.00444606459  0.00288539845
  613.362305  0.00438657822  0.00282756938
  619.690552  0.00432950817  0.00277075497
  626.084106  0.00427620392  0.00271476037
  632.54364  0.00422562007  0.00265574525
  639.069763  0.00417661946  0.00259515224
  645.66333  0.0041300836  0.00252943579
  652.324829  0.00407894049  0.00246223737
  659.055115  0.00402501458  0.00239490648
  665.854797  0.00396752963  0.00232941005
  672.724609  0.00390897458  0.00226682564
  679.665344  0.00384937436  0.00220706197
  686.677734  0.00379148545  0.00215042778
  693.76239  0.00373479654  0.00209545204
  700.920166  0.00367947365  0.00204202114
  708.151794  0.00362568535  0.00198813574
  715.458069  0.00357223838  0.0019348627
  722.839661  0.00351778534  0.00188187056
  730.297485  0.00346327201  0.00183033233
  737.832214  0.00340906112  0.0017802068
  745.444702  0.00335497782  0.00173144392
  753.135681  0.00330145261  0.00168399932
  760.906067  0.00324852834  0.00163783971
  768.756592  0.00319610303  0.00159270875
  776.68811  0.00314443931  0.0015484764
  784.701477  0.00309352344  0.00150501588
  792.797546  0.00304232491  0.00146222895
  800.977051  0.00299152546  0.00142056867
  809.241028  0.00294098747  0.00138008851
  817.59021  0.00289085368  0.00134075747
  826.025635  0.00284131942  0.00130254473
  834.547974  0.00279224897  0.00126541802
  843.158325  0.00274375966  0.00122925383
  851.857422  0.00269592041  0.00119405671
  860.646423  0.00264856708  0.00115971407
  869.526001  0.00260176579  0.00112629542
  878.497192  0.00255549629  0.00109377259
  887.560913  0.00250966335  0.00106218422
  896.718201  0.00246449327  0.00103150343
  905.96991  0.00241992273  0.00100170285
  915.3172  0.00237597199  0.000972756243
  924.760803  0.00233269576  0.000944577332
  934.30188  0.00228996924  0.000916991616
  943.941345  0.00224779034  0.000890159165
  953.680359  0.00220622751  0.000864077825
  963.519836  0.00216507679  0.000838697597
  973.460754  0.00212453166  0.000814060564
  983.504333  0.00208460772  0.000790145015
  993.651489  0.00204523676  0.000766890764
  1003.90332  0.00200653542  0.000744300371
  1014.26093  0.00196847157  0.000722347526
  1024.72534  0.00193087163  0.000700703473
  1035.29785  0.00189384248  0.000679618795
  1045.97937  0.00185727642  0.00065909524
  1056.77112  0.00182108511  0.000639117789
  1067.67419  0.00178541499  0.000619716826
  1078.68982  0.00175013987  0.000600895088
  1089.81897  0.0017153729  0.000582643086
  1101.06299  0.001681161  0.000564944232
  1112.4231  0.00164734281  0.000547777279
  1123.90039  0.00161407131  0.000531128026
  1135.49597  0.0015813238  0.000514980406
  1147.2113  0.00154899107  0.000499321497
  1159.04749  0.00151720236  0.000484138814
  1171.00574  0.00148589374  0.000469418446
  1183.0874  0.0014550304  0.000455140369
  1195.2937  0.00142469932  0.00044129556
  1207.62598  0.00139481109  0.000427872495
  1220.08545  0.00136541354  0.000414854585
  1232.67346  0.00133654242  0.000402219332
  1245.39136  0.00130806677  0.000389854511
  1258.2406  0.00128007715  0.000377798482
  1271.22229  0.00125258067  0.000366053515
  1284.33789  0.00122520921  0.000354520802
  1297.58887  0.00119824905  0.000343347638
  1310.97656  0.0011716343  0.000332529104
  1324.50232  0.0011452873  0.000322048902
  1338.1676  0.00111935649  0.000311896059
  1351.974  0.00109371997  0.00030205652
  1365.92273  0.00106837344  0.000292527664
  1380.0155  0.00104342564  0.000283298694
  1394.25366  0.00101868657  0.000274356076
  1408.63867  0.000994254253  0.000265696959
  1423.17188  0.000970197609  0.000257311855
  1437.85535  0.000946230197  0.000249189383
  1452.69019  0.000922596548  0.000241318688
  1467.6781  0.000899255218  0.000233691244
  1482.82056  0.000875945203  0.000226288088
  1498.11938  0.000852918543  0.000219102119
  1513.57605  0.000830010918  0.000212113999
  1529.19202  0.000807068602  0.000205342818
  1544.96936  0.00078434468  0.000198786089
  1560.90918  0.000761491247  0.000192439111
  1577.01367  0.000738546776  0.000186292164
  1593.2843  0.000715736183  0.000180340052
  1609.72278  0.000692349451  0.000174575413
  1626.33081  0.000668766734  0.00016899535
  1643.11035  0.000645074062  0.000163593795
  1660.06274  0.000620041043  0.000158359398
  1677.19019  0.000594500161  0.000153292174
  1694.49438  0.000567961892  0.000148387
  1711.97705  0.000538620225  0.000143640107
  1729.64014  0.000507469987  0.000139035052
  1747.48547  0.000471827894  0.000134549773
  1765.51489  0.000425332953  0.000130203611
  1783.73022  0.000339142862  0.000125995459
  1802.13367  3.249168E-05  0.000121923025
  1820.72681  0.000175153808  0.000358129822
  1839.51184  0.000326382666  0.000347370136
  1858.49072  0.000274016231  0.000336933648
  1877.66541  0.000156273949  0.000483697106
  1897.03796  0.00037006475  0.000466965721
  1916.61035  0.000421808392  0.000450813357
  1936.38477  0.000447459432  0.000435219787
  1956.36316  0.000462996773  0.000420165452
  1976.54761  0.000473145337  0.000405630039
  1996.94019  0.000480781484  0.000391595851
  2017.54346  0.000484683638  0.000378108612
  2038.35913  0.000486866076  0.000365050131
  2059.3894  0.000487429352  0.000352413394
  2080.63696  0.000486646692  0.00034021688
  2102.10376  0.000484476477  0.000328441616
  2123.79175  0.000481222116  0.00031707919
  2145.70361  0.000477081223  0.000306105387
  2167.84155  0.000471999025  0.000295508187
  2190.20801  0.000466057623  0.000285281218
  2212.80518  0.000458560942  0.000275408645
  2235.63525  0.0004489251  0.000265876151
  2258.70117  0.000430899177  0.000256671483
  2282.00488  0.000364996202  0.000288786978
  2305.54907  0.000429345324  0.00027836347
  2329.33643  0.000433562673  0.000268315693
  2353.3689  0.000433676963  0.000258627813
  2377.64941  0.000431647408  0.000249292469
  2402.18066  0.000428413565  0.000240298396
  2426.9646  0.000424258033  0.000231624479
  2452.00439  0.000419333199  0.000223263225
  2477.30249  0.000413857604  0.0002152097
  2502.86182  0.000407774991  0.000207446836
  2528.68457  0.000400925404  0.000199960312
  2554.77393  0.000392079033  0.00019274943
  2581.13257  0.000373249146  0.000198532114
  2607.76294  0.000383154926  0.00019151374
  2634.66821  0.000380349346  0.000184745237
  2661.85083  0.000376089447  0.000178219954
  2689.31421  0.000371129514  0.000171930238
  2717.06055  0.000365780026  0.000165859456
  2745.09351  0.000360071543  0.00016000263
  2773.41577  0.000353847339  0.000154353533
  2802.03003  0.000346786983  0.000148904903
  2830.93945  0.000337207894  0.000150165957
  2860.14722  0.00033769646  0.000145056343
  2889.65625  0.000333686592  0.000140115619
  2919.46997  0.000329126546  0.000135336973
  2949.59106  0.000324334862  0.000130718952
  2980.02295  0.000319416693  0.000126247891
  3010.7688  0.000314451725  0.000121927747
  3041.83203  0.000309464172  0.000117751129
  3073.21558  0.000304471469  0.000113711205
  3104.9231  0.000299471663  0.000109802299
  3136.95752  0.000294477621  0.00010602465
  3169.323  0.000289512041  0.000102375008
  3202.02197  0.000284578622  9.88471074E-05
  3235.05811  0.000279680273  9.54346615E-05
  3268.4353  0.000274813181  9.21401952E-05
  3302.15698  0.000269989105  8.89550865E-05
  3336.22656  0.000265212933  8.58774438E-05
  3370.64746  0.000260488654  8.29043274E-05
  3405.42358  0.00025581746  8.00322159E-05
  3440.55835  0.000251191581  7.72543062E-05
  3476.05591  0.000246622716  7.45738434E-05
  3511.91968  0.000242112452  7.19830496E-05
  3548.15332  0.000237661399  6.94788614E-05
  3584.76074  0.000233267987  6.70616209E-05
  3621.74609  0.000228929915  6.47269189E-05
  3659.11279  0.000224653908  6.24714885E-05
  3696.86499  0.000220439761  6.02936198E-05
  3735.00684  0.000216288419  5.81908571E-05
  3773.54224  0.000212197585  5.61587476E-05
  3812.47534  0.000208165395  5.41966656E-05
  3851.80981  0.000204196389  5.23026501E-05
  3891.55005  0.000200290495  5.04740565E-05
  3931.70068  0.000196447334  4.87081234E-05
